10.984307520798195	23.24153273396318
13.740751938351686	99.99999999999999
14.273551953718039	19.049181637962473
14.54966743047757	2.4004237259593295
18.231361099586387	5.714790523991715
18.712385345630462	4.535623963107457
20.250316438715736	9.124458096714388
20.655101482397303	0.44338431921827626
20.837801377472548	0.1462391666260965
20.97589149588565	1.2504629623986876
21.333235870201236	2.9380244604946792
21.521348307414648	6.600458350832111
21.89960036952817	3.099707893785466
22.071199850988975	0.01974163056723398
22.605850184267815	1.155496780594109
22.791596596975317	4.100429639278037
23.912172305835202	4.640562802187503
24.581535477529194	0.7762766237103893
25.77084297981579	4.14599476632924
26.241039316087978	0.472309530482446
27.10292230536903	0.02828519792725799
27.419422250507317	0.8028224196489739
27.684211166040452	6.387747952425995
28.774788639526147	1.3233236608780168
28.942053860757255	0.0783803212856544
29.34075745195204	1.8465567275488104
29.427006644106235	1.2474129800922988
29.644329098675584	1.0918742345766141
29.68843000724427	2.2085757007335864
29.731702274258513	0.003668928180897059
29.826888114619695	1.1402115743451011
30.676924748608197	1.0710769806136333
30.82214315055663	5.464784919638489
31.667799619758714	2.253742294772113
32.058342617758804	0.5637331316919699
32.560684626873496	0.07758770560897095
33.09238110810085	0.02492139780337977
33.12710413101169	6.850773511173809
33.37222095510083	1.5612483821032594
33.468089453876274	7.139559289917402
33.75065865862862	1.324353871989731
33.82846926426501	4.527127490917067
34.16326745862883	0.19667640229112832
34.63665957128479	0.021613250138852857
34.65761996481525	0.23999962468931152
34.80366945570327	0.6439100300185715
35.53409984165034	0.6729752991490183
35.564921488131944	0.6584712918313723
35.73075420692659	0.4150898420483862
35.91786495978475	1.2547085939111513
36.00437421063008	0.03427971887492634
36.37307175541363	0.09206639436624399
36.58661430075612	0.0045287179780385805
36.9458615192654	0.10031485466341529
37.77643895435841	0.30264785642696873
37.948501678781554	1.7185183063500482
38.287126179000076	0.7722289404955973
38.367656920839394	0.3004061473335179
38.45157704705976	0.004915845971888906
38.65848728658136	0.08941914046457271
38.749486889722824	1.9376482277044735
38.768366492237284	4.454403513080126
39.10294048954304	0.31179708658479455
39.221118771413195	0.5515721335389865
39.27460176354854	1.3714440053765162
39.51174267680381	0.0204298939963257
39.76141563700785	0.1737155986379386
39.82902631808518	0.4772616904224828
40.3694418269384	2.3574165297641323
40.39857113752337	0.02321563378543353
40.67983031109068	0.6524856240474691
40.848432105169024	0.17746418297556413
41.170173844709836	0.38390174649030284
41.348238857407146	0.24504702197520387
41.41456009365047	0.3618185505380658
41.495763955920836	0.07051408624467727
41.65935013748299	1.9580570684294865
41.72526636470146	0.3086600696496867
41.93592291749448	0.3795067014840267
42.02241930491433	0.1982280857341197
42.06170280524554	0.028203127380109824
42.077351034023444	0.0021458056239313586
42.303292179811635	0.4281831360355277
42.407696749495614	2.448810912794056
42.46138066241199	0.15887312778185886
42.699159671728346	0.1201684452354456
42.79029695020703	0.48018536173622367
43.08566686179102	0.2038973248139561
43.269540891396666	1.5408334561887618
43.4544459057937	0.24576340842257452
43.59478877390963	0.9886524094908309
43.76633369788427	0.004265614104747017
43.8526598738001	0.07161954438703366
44.65333774795996	0.6373266931105472
44.654696564755135	0.10684106193209175
45.01914206788205	0.22923235259140373
45.06991578630951	0.07794898795597813
45.56631614076353	1.4055262367187367
46.02688628556649	0.4727320426649572
46.15706025805562	0.3450296192266226
46.331252657475076	0.0010079819472587155
46.369187683783174	3.312489092929644
46.55326693805259	2.072989931626266
46.61769072244829	0.01631525445529404
47.03018482368203	1.311224140220465
47.08864132269998	2.1753005694405227
47.13157298346377	0.3944270738983745
47.147697486234904	0.9993170409325248
47.19604181676152	1.1404886442724733
47.49800010896961	0.4190077624853047
47.535742272386074	0.03903860259660767
47.84828069749643	0.30406158343085343
47.893135368046515	0.3424351328738883
47.9185679882564	0.22240415609742786
48.00519612529129	0.07384211778857244
48.09208640007025	1.156243201253087
48.18435980726651	0.23823216801700772
48.31148055949207	0.6708793466480557
48.48165166421577	0.4259407246116865
48.586715224852	0.47522382531962454
48.61415701110949	1.149224714756677
48.75641576753096	0.10056644604275604
48.95348969662511	0.018907598965725466
49.112532982246	0.7942564912255496
49.26730071642375	0.045169441168499185
49.56337150106486	0.7925703399952034
49.918579316608245	0.5328096812979674
49.94710142149939	1.014598219652542
50.00895978588548	0.8357463060619981
50.07858949857907	0.7937387607225593
50.39577088741987	0.7925990267082084
50.40665841597166	0.013936816752025285
50.630545533961744	0.11377419453155346
50.69881360167556	2.211084618460536
50.845483680059864	1.091847820760687
50.95466664960386	0.9083317546662524
51.116482860753734	0.11449486710229649
51.19700391073256	0.027633918642617498
51.214251999293666	0.6395301674442028
51.42608319577152	1.6360220315020673
51.42949374012081	0.26377901762085876
51.53937362984167	0.26311095492090414
51.773681505057304	0.17102713632541458
52.05667610793948	0.25438329663361536
52.19517649530311	0.9826829270884558
52.5422731197703	0.0015665361964235219
52.56484797122561	0.843338912962043
52.68286507531883	0.5050094753156535
52.83682995306926	0.009726088562913042
52.97520704419564	0.006891171231927374
53.56413215880275	1.3157456213792151
53.72626602915138	0.03660331829334295
53.84416840608848	1.715637619506775
54.00124969467121	0.002228119830082829
54.004790927499215	0.8810046973179069
54.147200805928605	0.44810300718632506
54.320700686495314	0.021982352136391686
54.38920298313818	0.1695448444046726
54.47064232546898	0.27824583217211313
54.55515436126205	0.49494057340751574
54.815524444664376	0.9022070087790228
54.91913032996273	0.007908105333834283
54.97629604368269	0.015196902595224538
54.995733295166936	0.050011374404056015
55.23486209013819	0.15827607408878294
55.26884952440817	0.23530551333912023
55.34280776487019	0.8764289301725603
55.394815886032646	0.07753322436772493
55.44737453262873	0.006513207623834059
55.89174621091387	0.024956498058774715
55.893813184508176	0.15915810833183577
56.11224904665753	0.5634260609407283
56.47270793796492	0.001765090664659669
56.4865394784999	0.3382285222953796
56.589251964697176	0.32167553814743216
56.628300156700284	0.18928003412343083
56.63902402643571	0.007815010707224637
56.6682350328696	1.003880261785795
56.75580056945653	0.25031749558828287
56.766282330483094	0.5651802150281285
56.88551259146633	0.8116999952604194
57.03661862429748	0.9367603461007693
57.079320320824735	0.16241994380950137
57.174193790825754	0.06539686597436734
57.18112013636525	0.1938885422860055
57.20549437051663	0.0027162752202501985
57.22521981826102	0.043355313803236206
57.32379378862858	0.35866084115573665
57.446453474649196	0.18509328303760522
57.84992451153013	0.08081983779165978
57.85409382831518	0.05558391748818087
58.00211438708766	0.036677248384358416
58.03268507579034	0.16796440633196089
58.08311138737637	0.9163371056446504
58.2206738697732	0.12176358987100563
58.380984382948775	0.24345222775931494
58.42407276339941	0.12058080698114643
58.57576613712311	0.014156911738627011
58.776941116119865	0.018302804033128617
59.06272775076237	0.027568492768910952
59.105286658331025	0.02218314653232365
59.22161452482159	0.11411188793177564
59.26432215436823	0.012203755027853907
59.29780256420211	0.005395870470742121
59.50487721894759	0.1199160336424055
59.572104819807265	0.131628122456187
59.59730666532903	0.006610933517936255
59.97099875021531	0.2512373446972133
60.03637463639041	0.010388558955546138
60.06959202072456	0.013798259511004198
60.30719979349664	0.006528162462594929
60.45992349417122	0.26708869869414253
60.50231101702259	0.5375068108668969
60.52322862845014	1.0721689565606571
60.541954705068456	0.20007393641981402
60.68667036440498	0.21233426732357583
60.711152780686994	0.31211029851414995
60.75158011114144	0.21278475006391237
60.835447847124016	0.24298774297948614
60.864037823250946	0.06082581252343366
60.96742883516499	0.0035987886031960885
60.971355274148486	0.32267748778513106
61.057653286203895	0.12630072064682998
61.26123948686657	0.005504816990527461
61.325132743275454	0.0011014107499008011
61.399742979827494	0.037204482393887774
61.546195422385686	0.0015743604113928312
61.64545577784093	0.08353850654956364
61.6523855811272	0.32136510292741444
61.70121720115599	0.8863052567870107
61.74289110474818	0.22332849472076982
61.778588869670045	0.28003805655126385
61.79048862121717	0.014010206091564873
61.94623377387387	0.3302446502134057
61.95735937543959	0.529784362945868
62.00929458660539	0.1965126786013787
62.33607146679345	0.1080309771912884
62.49662831720665	0.33408265196808745
62.568386469973625	0.09862068825250515
62.89457964011986	0.3100688883114372
62.91042415094999	0.348753782215835
62.95924184963968	0.023330008374914155
63.39671093017982	0.4258987266818255
63.65949679981526	0.007009306205020821
63.72382350066677	0.48188794500708915
63.75634253691786	0.20055512756778798
63.76368554455786	0.13255648862739916
63.88136200875199	0.023463911505810585
63.959040493518465	0.059064001446471545
64.0434465275985	0.27403885164150243
64.11678452935861	0.0021186054760664605
64.15946765591438	0.07886183106475637
64.21166624355632	0.4063187902688904
64.4992522259008	0.8897249459843504
64.54063664070357	0.6364000566949491
64.58707566693039	0.8608549656356618
64.58855531272637	0.38440642647525897
64.59351963002746	0.16563237292231262
64.6794874693793	0.24524514687190763
64.7262919623722	0.03312917810459611
64.81048257593642	0.028556767420506318
65.07152009179269	0.2579457576659129
65.18961067100834	0.003572209639798674
65.19569633876563	0.07758911148932406
65.5624461916015	0.3071839685355475
65.58778885582836	0.7064749042388538
65.67797902520348	0.25835706347423193
65.71217428666878	0.16976339208277128
65.75243220204533	0.09537573756599958
65.82130110152522	0.0011039004807182945
65.86193239321513	0.15629295697237455
65.90402210410619	0.0072827366378337855
66.14488989578807	0.10342032446982659
66.19781315485825	0.3484078682700486
66.31318909470777	0.027537123395064842
66.33650626626797	0.13831101025617032
66.35544668439226	0.31566245620957867
66.44977799929623	0.05269261919064324
66.45487709007915	0.03725183185749261
66.48107224374392	0.0011433606992848813
66.58061302720371	0.7726121000875552
66.60710127599653	0.033895104404504064
66.85082341159824	0.8901252150004664
66.88149789681118	0.05626120310572994
67.04349568937427	0.012088555216555276
67.23185508836295	0.05052228423484613
67.460316923701	0.26181651380842497
67.70096389708351	0.1668211515028105
67.720642300284	0.033445111419503126
68.04144252339721	0.04052382860149946
68.12835812652479	0.23963895862703283
68.1425297530089	0.10966513770555468
68.14397273474822	0.050900742424406106
68.20495267698513	0.10612162545100616
68.20742250990823	0.45622985920286957
68.34654526244744	0.3249394447126604
68.41575227997271	0.0978216134168932
68.48523013666691	0.02592648184769028
68.55907955248139	0.014622589241214463
68.67126638748756	0.23625755711001697
68.69010118457454	0.053467791101978135
68.93757738720718	0.008154320676789107
69.15405457544325	0.5104190944018188
69.43090572378634	0.15690495506511212
69.44139287652008	0.07933342023192348
69.52240093956726	0.12076462989839706
69.55221000335634	0.008360945430223378
69.67026195986818	0.5383137506789377
69.95968447894225	0.012540625537646082
70.02096036300227	0.3930626804785864
70.05067113177086	0.007879937120793015
70.08361621767637	0.021929816136590178
70.09010264443549	0.05322113245212691
70.09518115955203	0.27810730397202155
70.20745680616011	0.0012733979293801615
70.31964947906552	0.32265318603074067
70.37875602486722	0.14733063472654356
70.43156453912435	0.07916334930719077
70.45018490671043	0.1350321436879779
70.51267842227905	0.005936178784908608
70.59444807161412	0.20795363504092107
70.5974807693954	0.42168460358254123
70.85809857342966	0.005436050053022659
70.89602775553293	0.4767522536496818
70.96963903872566	0.02729713319558445
70.9827441900156	0.04055590405481285
71.00714323659435	0.5502750389935045
71.12695108235879	0.0035571596065288387
71.13913905087048	0.1547255788506789
71.16573234216405	0.020864555538975836
71.17721105425193	0.06012019404356206
71.28975291022738	0.07883387141117584
71.4836645855083	0.02711735450213488
71.55150225725333	0.00933033612635351
71.70294790958458	0.03960329977279753
71.78003742350468	0.012667153949424201
71.83350910702423	0.18003177015096666
71.86821613698574	0.6889392861305929
71.95444255467247	0.04169573113080566
71.95504970104695	0.0011840395934225902
72.02880829378627	0.32353437318278067
72.12257662077705	0.020090757676375096
72.2547228840206	0.4567955985283482
72.45866008594385	0.12297904861310265
72.50254841097968	0.20290526415196003
72.63301651908294	0.4450920302521402
72.70549845019764	0.1559079606803401
72.70570554674083	0.021923314931287213
72.74433235963802	0.7752058840293683
73.046693664933	0.0016317357581996704
73.07668581096561	0.017243163446628865
73.12650249053796	0.2827620197110391
73.20815315914177	0.055967441977930146
73.21452327834909	0.13287664644370648
73.34519520169772	0.08780341741056576
73.35007430527841	0.08440281869604292
73.3932366870868	0.31730253355311105
73.40398104372986	0.03443387855098851
73.47040621551767	0.06959626497350153
73.47398730312298	0.05987146236241098
73.81123440090089	0.001042442565281934
74.22398096875165	0.04040220294143195
74.28517954398114	0.04275754276274671
74.42306135926968	0.14156320754102208
74.53058592372302	0.08314312951677622
74.5754815904867	0.013626612005163869
74.70763241167728	0.0921290610378585
74.73282978661028	0.06276463860020395
74.7695879269902	0.2700185489467959
74.78281837121455	0.0014083306340295467
74.83823321444892	0.307603276693871
75.0846732626874	0.5533561026225473
75.14502163155053	0.43710990198868793
75.2217298371606	0.03387819270363625
75.29584906669945	0.030981335762242653
75.4770883512418	0.45670521854236434
75.58192648059075	0.015820477677768237
75.5983543106215	0.253441759610555
75.6318041224115	0.09369064737926673
75.69516710247926	0.17552623206052598
75.69850499824736	0.11268782759690153
75.74739816050783	0.280904084111633
75.81110578953368	0.09382106152734464
75.94172645523194	0.008086573499163068
76.0499787903128	0.08928296232229252
76.08788394496547	0.028281622772147814
76.14679955138908	0.021894724484418936
76.29674828667937	0.32327258284543503
76.3559990852941	0.07198311185897213
76.43581896014643	0.011983922085933654
76.48808646845536	0.035806229079932715
76.7134351635511	0.04021853959267075
76.80645957180879	0.19174451336095236
76.84943534400036	0.05689049374939501
77.00716142611657	0.20599276566004282
77.12216743219845	0.002644112880603522
77.13723310291627	0.3018980403116263
77.18023789353148	0.1936507674353334
77.25041154372136	0.004885018949557997
77.28061116950376	0.003965635982469361
77.30611983549129	0.15572346867245473
77.5226296081765	0.36835046356115514
77.68481657237264	0.16972357667051155
77.70735028148702	0.13374737981840137
77.71262774430355	0.2614080904861598
77.77056029648199	0.2995807695329359
77.79874998917964	0.13379965699518098
77.84690904828832	0.07405984237289161
77.88444829950575	0.051623059816999
77.94868170302136	0.007545979110131785
77.96788684996771	0.23079421601540637
78.19193249777437	0.09691921971661013
78.40480633674983	0.4017483660227732
78.46133027475003	0.28728768055767456
78.50530386842132	0.003365126536797001
78.5357445295536	0.016024652967503723
78.56501825412761	0.023350399986018247
78.59379870833861	0.06235674111167933
78.64921669199921	0.17877237230740323
78.69695508666184	0.19613665337289257
78.93993668957565	0.006507734441679013
79.162837193103	0.07627578831121949
79.31534815798324	0.027641730843939668
79.37781460382374	0.025736858171363633
79.3954647285537	0.29525125736453073
79.45538457129733	0.05552456770994688
79.58681945082299	0.008018631052204047
79.65775301184291	0.08082777921639775
79.70919011826048	0.0559322774809593
79.71791161113033	0.03315762664938975
79.76044428450996	0.11411725862755193
79.77573680321264	0.20593561245151348
79.7877467719716	0.005729233069001133
79.89387372429607	0.04008792608463078
79.94354217971022	0.10728330921927307
80.00132200216761	0.1411951523852778
80.1247953980749	0.021024525396823916
80.22616948136503	0.04047848950029127
80.26417801260821	0.015605085036103973
80.292323800135	0.033491366272378295
80.50016007298669	0.2123160429574066
80.58779426873652	0.2120426908948439
80.65493487665482	0.10033772467109256
80.67232606721196	0.02007035972481347
80.69145509235622	0.02590876514962258
80.69859994376993	0.1847003255008954
80.78647802388625	0.04928552051751169
80.82239808634347	0.14879544743128115
80.8409306604679	0.02402888248396337
80.95502928864005	0.016244199864717878
80.96758668183274	0.030525184089869352
81.12639687018714	0.010593859085895916
81.3159077712232	0.0027655175268486614
81.33008589158781	0.026748916659561223
81.45435265088885	0.07808658524521596
81.46138541577943	0.041964621276967096
81.46957904240439	0.0301791323417091
81.5650701614711	0.19789084083626252
81.5691234280669	0.04746525478932753
81.57798315417779	0.16336936752989847
81.7231619323293	0.07278405774055781
81.8534551141515	0.03840165619903162
81.86510845867336	0.01900555412710269
81.90121946957157	0.14714423657619324
81.94550620383458	0.015557287987482214
81.97168659774364	0.057247565927341926
82.07832355769959	0.04806427676243379
82.11392341982307	0.08579041670889442
82.17338006817641	0.19922694660527795
82.1959998473068	0.0015732624011956609
82.22149031904858	0.0059035077669581755
82.23995563263865	0.11880026640013597
82.34259396458187	0.11191743269639366
82.383839734884	0.12283964137644232
82.50239521992901	0.017228307328815917
82.63408328224625	0.002529847650665695
82.64916542258172	0.06214430221410501
82.68088229480016	0.01146598279909543
82.73335128095054	0.26408736610889405
82.77600801809729	0.10356482580901022
82.87111640475464	0.15567799557615292
82.8985781454998	0.05334594506705876
82.90396256850642	0.06491124977053683
82.97984225223733	0.07678069059367221
83.13326995305815	0.08713838391099774
83.18088707412359	0.5464433775922831
83.49228037562824	0.06024210451389575
83.78076535431211	0.022726422254143043
83.79640153866701	0.057695709001571914
83.81479910228603	0.12798764243949212
83.98082790771373	0.024217076556197963
84.12889310268072	0.012601024446364826
84.26847755140342	0.0010660157217720178
84.28206876650503	0.03832170181968099
84.32537084773743	0.04562331512112568
84.32728383493425	0.06951683323167027
84.36818820064423	0.1578633512361954
84.3912710473738	0.06399206354415614
84.40160302043816	0.19674836794693482
84.41252492673667	0.02303052126682012
84.46328373723533	0.0034400374277281085
84.50033984450359	0.36793543439461707
84.50359297581636	0.02430700601757577
84.72522757827419	0.04731636467224759
84.82524808801065	0.187521456747912
85.067802056675	0.03603474373517959
85.07747008724671	0.25052416217793266
85.15418953976537	0.1979581520353901
85.49894251645932	0.033894860000109855
85.5304935806905	0.06649799421687654
85.54234901832612	0.03439131710571602
85.54846319804179	0.0209828797511244
85.56281687653012	0.01149294086454915
85.70695623657433	0.012924847429665036
85.74289699295193	0.3293326217453533
85.82853111432061	0.04534128960742883
85.84372302315987	0.01959396974158636
85.86111203073563	0.018248467654301735
85.88051947086333	0.008723589543681663
85.98295383697024	0.004239678405143645
86.03512776544062	0.0529363950092566
86.09358886896305	0.025779735011981924
86.176989329349	0.025059509900882487
86.29342907718939	0.13397795119006242
86.51719573040151	0.0018581645285828832
86.54822396535091	0.08847907131512002
86.58173167568752	0.07169127087094042
86.63262694350428	0.052460846371841625
86.66728557081595	0.010212936453657407
86.73965568477234	0.11078574842074328
86.74318482262082	0.015436822590825747
86.91654039984027	0.07030873679663602
87.00855328987006	0.013149168325511447
87.12584751377368	0.0014278803332142516
87.27539133311747	0.08614546334819229
87.35096679102688	0.04332454369997948
87.39781343965065	0.0028866439299578698
87.62228927773576	0.009279338091370309
87.63258988560708	0.053771493174358066
87.67332292097744	0.020571326259744536
87.70947551200669	0.19319287793154982
87.74496186846378	0.11288661774386105
87.97207122722602	0.06585022823390228
88.06657418381639	0.023685423343157926
88.07059423769083	0.07089420605573274
88.08278998910946	0.1508150994869021
88.17024168762899	0.1825711514105623
88.22526813562044	0.021728018285873795
88.44172940723519	0.09168427761039485
88.46918534631584	0.06849873770781884
88.52333597504114	0.22984315850879738
88.66901363618881	0.15018102865843136
88.73499121363139	0.03879465172606978
88.74080295681331	0.06852027759702484
89.06141161773355	0.039668062895116665
89.12575834086003	0.20680565781874496
89.24252578479299	0.03681860550906791
89.32487844359039	0.026572524870713397
89.32927339995945	0.17278437113586942
89.34271190333865	0.012559301864565407
89.36796950332074	0.03142644454110139
89.45470758655033	0.08148117764147196
89.54145660208628	0.018624030216435494
89.6863310016528	0.16033128143021896
89.8376936383727	0.014704905327184171
89.93530098776564	0.08576479692879778
89.98856647311828	0.16992854546056224
