10.027500946604487	12.563557427465536
14.964648193617057	99.99999999999999
15.476285417287208	6.4638380333236
17.768222913441964	5.156589398745127
18.508858204907785	8.012154523212182
19.752771025165092	2.2455279986473142
20.13283292573214	2.0725616404242153
21.359188772193466	0.19715035981494214
21.983564227092593	4.128861841631066
22.215009037813232	2.801829027231447
22.43960354506759	6.134121492289501
23.377017682469173	3.382274798071358
23.64232269149354	0.07012407624773476
23.978366312371477	0.10585115270141435
25.205219221747914	2.427761310574487
25.426687904918207	0.4697896638328217
25.737757805065197	0.005473518136032291
26.16737191885531	0.780893302705724
26.783496016724676	0.0033725447068114083
27.664361485580507	1.9505148003544825
28.57284661395892	0.5153612556547323
28.79976368024323	1.912403535057158
29.69289544237395	1.4424470274860373
29.730742973777627	0.25707799174950463
30.192420138424815	11.441528260086658
30.386315075744	3.765791786419627
30.399438980260538	1.5423367223380353
30.533475806099865	0.23109152275497294
30.74719876405816	2.915047015986831
30.95697388255921	3.4299274578968943
31.244250961574142	3.4098691857625414
31.943317131544877	0.39729257068545065
32.03657664181154	0.10056203993065943
32.66524525915891	3.533600628403129
32.69739829543098	0.09045214269464621
33.92532055406776	5.171834605981107
34.14817803570922	0.12993571452164968
34.64071389303355	2.147613199432805
35.074162297885735	1.0560739814496012
35.271744580149914	0.8239266658531295
35.57460117171431	0.5698512138207626
35.7079321849041	1.0405157268825582
35.98262947406605	1.0467323094113135
36.900008016830114	1.6256272606601223
36.90291664863323	2.7018698473523255
37.03965062054409	0.03897710872001016
37.20459070427313	0.9085502988050096
37.26206864001016	0.07086442541449814
37.30324585765301	1.6484233479706976
37.38214187461851	0.09642558453581258
37.5239929600598	0.9241981170544861
37.5714956386684	0.11796694109464123
37.981281655822066	0.2574729564708921
38.301541343685045	1.5458631508687553
38.64200362203147	0.04595671848065338
38.86876422122538	2.9977329085278672
39.34945848691496	0.8853785396703051
39.455800948363894	0.5574464688293884
39.518745385013844	0.06588921318952469
40.12514143900338	1.010077393539781
40.23079645301031	1.0651401001094982
40.51165663333295	0.1856679757823438
40.52878567797649	0.00901432846225496
40.58648578466379	0.00851948443075084
40.8507560376585	1.953693125192912
40.92316736720302	0.0021314980757610345
40.934507666274214	0.09007921329932243
41.158354556692046	1.221038146110207
41.372089492980585	0.22101675037292218
41.4055193048039	0.5147226590516436
41.4916052422539	0.6038322317052013
41.95827261256176	0.4780951900989348
42.33474638844711	0.8480721653421094
42.53014637201479	0.19674704949104338
42.54858792878368	0.10822978230050415
42.72612050188074	1.2348616937422392
42.775305206121686	0.9193858473521909
42.90451833175956	0.6202645638753816
42.95322997136379	0.20777026265205506
43.50935986784399	2.2205540379568256
43.54369854162775	0.42919840120804087
44.090678538069746	0.005871190921965067
44.12553345663637	1.3811466369672531
44.83297374352597	0.7062776410303219
44.891692705434686	0.009667378250895045
45.32485426444639	0.6003254978487741
45.78730853488397	0.741054885530843
45.802833415972316	1.3887327353204688
45.991265991917444	2.3072131529226567
46.245886515774856	2.625355020457719
46.28040861857334	1.9532987499742518
46.39463635738218	1.2669739196540701
46.472162176766616	0.9724273492789579
46.568789664823704	0.668176521099861
46.99180266294561	0.24380163401609878
47.103039413931285	0.07872869598093503
47.168613388507104	0.5740423349998193
47.64913845975576	0.10250885897793421
47.80504027038592	0.1339898075482715
47.8500892738603	0.05218325429961099
48.013134331343	1.9531075726258074
48.3738827032912	0.15689551355237977
48.47086462190249	0.12823380292242628
48.480000950800935	0.8889340459220851
48.72131591491034	0.7541546622328082
49.02475753326562	0.34488800820900134
49.05838953918824	0.9682887484794019
49.09582636958346	0.08799298474495272
49.35761912952418	0.012681893388836345
49.417487842343284	2.0418113844168007
49.53440621658049	0.3699747084917614
49.781077156714964	0.36211837506870087
49.899055482951944	0.616021250245266
50.066496517600044	0.008104624910325094
50.33456564974202	2.1126724363596314
50.76945076853044	1.44956821842132
50.81786807492251	1.8506946812829472
51.08405276951899	0.05201972119598551
51.12873623867134	0.24196395360823195
51.19560365168287	0.009326620207310666
51.214247487180764	0.2694958544837689
51.262229807130396	1.106763584418431
51.28175585665731	1.346869996482193
51.658641601302094	0.04470751508911489
51.67479202241457	0.5189012110475089
51.745687703522805	0.9343944657432112
51.821949949946614	0.8587991613184106
52.22649493494804	0.10258550477137567
52.44427542545795	0.24026849459864685
52.72218855462392	0.03890814691700478
52.820029189538936	1.0479475002823122
52.825212971791395	0.002717274895860574
52.82836234103592	0.7336541026960594
52.903146878042705	0.7043331436878275
53.12645840286519	0.13255766649607648
53.335805792261965	0.02541236698702604
53.64525746009898	0.0013112975800246825
53.671973672983874	0.5465504326361165
53.68578636082931	0.1805657641116249
53.68619302927928	1.1620574191518078
53.84025332108357	1.3991627998233749
53.90201689363385	1.150005500757674
54.32255839812743	0.10259344295632215
54.36873084726193	0.2480917855828441
54.623402542414084	0.9294314317808111
54.69239252596584	0.26364156638275016
54.75349970340664	0.3456065697371152
54.84674521422334	0.03689678480518877
54.87560123407145	0.002715263790204572
55.18469347258615	0.1628795786279265
55.18959887312948	0.018413489103611125
55.2017068757305	0.02525833805999228
55.285158516526224	0.0359483390249907
55.376270623984055	0.01489028729674172
55.4768717659141	0.13369221803483655
55.51738523761294	0.830972786021328
55.664091329271784	0.055529398854900575
55.76827888708203	0.08235417296146788
55.83631878077186	0.48881881926222087
56.21265950932734	0.24461534215405653
56.60739296658729	0.0029792002038354446
56.653168496600095	0.018659848038935663
56.77797549028283	0.47084853393142356
56.99708285772492	0.24750446853931013
57.12526560572397	0.32189289864954634
57.13029941964065	0.002800010982899036
57.223003108398366	0.0025702783810645697
57.32878336376016	1.2710286196382403
57.592124398522415	0.7675825938427076
57.691937745655636	0.005743217927972781
57.71208564996012	0.4867248647193811
57.79433370384333	0.3477917825362671
58.04470343612019	0.04942215625967921
58.21147046524545	0.6963124580966757
58.44861157138051	0.4584923123237243
58.55640830276639	0.4421169580813381
58.6113569977003	0.11741559369042047
58.64953511122617	0.33837681040039863
58.988661996450546	0.03942137907554184
58.996593813083635	0.5339559717500983
59.05356507005682	0.06638507424288001
59.05944026232795	0.02364896120964846
59.10355763371261	0.006022062598167755
59.14688376754689	0.0879736595774748
59.6530685989122	0.3212140184593045
59.75760851663371	0.06325355469143809
59.839518718770215	0.018974094007697728
59.955294789236966	0.018885739029438187
60.18157040600737	0.195694577191178
60.32139206072901	0.0019796174071142264
60.451163421875144	0.00480567315928681
60.45137257872097	0.3352848599297719
60.79955986919904	0.47459881983015084
60.87242433510532	0.015595186957624806
60.8952247004462	0.06668256874143284
60.993789597593725	0.2939207272406676
61.269557540047785	0.00527269015113982
61.65550867453639	0.10413895474791937
61.70186402218126	0.10590472923814662
61.70368199679532	0.029435076560328614
61.7407306356844	0.7606239204802637
61.77125099600044	0.0038275839775128283
61.93733039499631	0.3567304085156979
61.97334193041181	0.25504806013669745
62.22853293805474	0.12605910028160972
62.31722096221391	0.41612308519751234
62.452367994132594	0.3892667173678071
62.5292424995505	0.37257794925292737
62.60376126622034	0.5074638222656112
62.76606443825777	0.29120675354390724
62.78277059022091	0.9547247063001152
62.815319395024254	0.02862618257740115
62.87815642802645	0.3445432626901022
63.01299114331818	0.11022347416520872
63.118990753622626	0.014589105618207884
63.22179091556028	0.2970424165990321
63.251536346325516	0.24662592294768698
63.3269324851263	0.08689267218882481
63.5431215202404	0.036503191456137805
63.555551760362185	0.12758081695067308
63.76350781643283	0.1380699204742985
63.87617647100892	0.12194939800106928
63.92968929758433	0.15295882011627204
64.03552375632428	0.3064868647812901
64.04114268606845	0.9901898363460602
64.05168481758228	0.10950179533675848
64.1221409115318	0.7580173335312904
64.2032178632965	0.01849374880138343
64.51877548084038	0.0984830993542161
64.6033529698984	0.45511038265293213
64.6773011637481	0.3421707676726939
64.89104965644482	0.45216097839490976
64.93211349472679	0.23108761022744312
64.94688422586428	0.08070846076740625
65.09632927971187	0.06146249126501666
65.12228851795153	0.5274307126121259
65.17452372448996	0.12342152874602687
65.20474379605798	0.6951863399954048
65.21130473285807	0.38659253707782787
65.34455309739238	0.437925695585603
65.45832918835673	0.030035952259574072
65.52385307211236	0.04116110024512614
65.72544094944224	0.0047234008095000165
65.76073181029894	0.0307723608713084
66.20347315360638	0.6090139537900641
66.34748375861511	0.12683699711968127
66.40193340759521	0.08479882764083418
66.56837719861606	0.2574200187547592
66.71493912952614	0.07298500098856564
66.77844120902063	0.005940005232333648
66.99331486965532	0.00366187369017801
67.1004834072783	0.08026426763141735
67.15462655241068	0.28535647076103565
67.2973273208377	0.47735594516363217
67.53722473661381	0.04985101967453791
67.55234020646067	0.07117491481590173
67.82958883093086	0.6791107188410704
67.89037496846827	0.060638047053365646
68.04012068561093	0.03130493348531789
68.06823320913335	0.795550788884166
68.0804459673846	0.1362540375148188
68.21234365794581	0.9232684889101376
68.3876777986952	0.09596985567876477
68.40297009788567	0.4176081412145006
68.44751835577124	0.4732329990229902
68.52216594121072	0.09249698921187197
68.95905419240563	0.10989112023660941
69.0066188702282	0.39968051889885314
69.01374432056356	0.1747514122772513
69.04902610227255	0.05993645709411313
69.11907351703945	0.08590313750903814
69.15555995025343	0.3825188576298989
69.27062764578541	0.16837419460174052
69.45348443202256	0.01389438358469575
69.61961579293975	0.15135917268002783
69.65952363591127	0.014954865945047507
69.68247300009519	0.14305700815020897
69.78026223410762	0.15751800852421807
69.79498272455784	0.02168938931223815
69.87251427851112	0.07578429698523785
70.06321375990731	0.1762962155804948
70.24883625432955	0.2684948147335474
70.33100922024943	0.00403416224493905
70.3670993488152	0.3587430544032717
70.43571676162681	0.4862046394815245
70.44543485211813	0.14941292896798314
70.45438523278479	0.14931378463351913
70.56063618141563	0.002376592401378023
70.58815741851402	0.15169364961404366
70.61317847138982	0.006244835571128967
70.90421120901395	0.19608808729893837
71.01632471866718	0.06871685583638364
71.09565629206769	0.12933014976122498
71.12201591979948	0.0025921352668891993
71.39373834765286	0.002677938111609737
71.42524338921466	0.10712787978327507
71.47655193080901	0.03175573031502562
71.53206665942886	0.9412945199653177
71.65068876131588	0.05378893537876887
71.65202101328508	0.5870637955402863
71.88285390807711	0.07498120798686386
71.89608027192368	0.010037107177268937
71.90748730082953	0.020942506269548092
71.91940559907287	0.17801116893617352
72.04813667274969	0.003678103929353183
72.17004367088762	0.04706914539400428
72.46813821943891	0.08692066489492875
72.77921253423904	0.14635988153374033
72.82386290052106	0.023603405608655637
73.03187337391408	0.2040908936677456
73.08632070865931	0.043491423198897636
73.16772841392367	0.0830896557657876
73.38603295319601	0.05366666242771045
73.43366090846416	0.3579642514365255
73.46432064151557	0.011712593847704362
73.5875669965221	0.17190266065568519
73.59468504940206	0.11981251312001143
73.5980381887197	0.5226375748926962
73.67816175370348	0.08785662848572749
73.8914693866808	0.03372584766446152
74.1192704401114	0.003748080189977502
74.1546042275047	0.0022057010115059243
74.4240469906019	0.42988980272697175
74.42665210334415	0.23133626719327738
74.54324715724718	0.10445843509262039
74.59205244869231	0.17647732448759015
74.77828001861306	0.5114891232930896
74.83697844203053	0.027836866395134125
74.85725655924104	0.05224920976235569
75.12717944102131	0.006887755616751475
75.13869392367869	0.16452962289987372
75.29609164794272	0.00496648079703005
75.31913287210216	0.17881424104373933
75.33142255745938	0.16281099966643608
75.43309039692942	0.06404118381295477
75.4342827985036	0.04177759287457713
75.46738901768569	0.284558426056428
75.64015967307705	0.22277192290519474
75.70977747157764	0.14865498994524073
75.81984558713418	0.5000335120779841
75.83550853528327	0.028919539091220005
75.84175753208645	0.1583850090323295
75.95513670740623	0.0060765267292051065
76.03304034381527	0.1211951458533677
76.1115435280483	0.00590338506414242
76.30339185147794	0.49770997584378973
76.44861500702143	0.020707744705855756
76.60462201256512	0.06416365324491505
76.64370094649956	0.09558042251881278
76.65263625278324	0.28335011173088215
76.6730786872922	0.06083506313054593
76.67801371689941	0.06234046374494231
76.71541711968001	0.3524270783880445
76.74266067941616	0.01809398690951768
76.8023646814736	0.0228926743415013
76.8536274908059	0.07645139962214398
76.93574232097986	0.46338070274852317
77.09761390885987	0.1891021997337771
77.1631645669047	0.00900625796757513
77.22087653562524	0.08574305993996711
77.38948061104699	0.09547045350321781
77.39628438385336	0.13555832490511938
77.53769152824064	0.021565480339383294
77.60559057886682	0.05428304150944041
77.6821939877486	0.02432320170853019
78.06840348667745	0.21180634335227888
78.13328764273382	0.07598338706272705
78.22408692023197	0.1471032878163899
78.2699229799123	0.11166011337829737
78.32807806509066	0.018679258013049028
78.41900393321004	0.09287002620457245
78.44319553598514	0.14908549830606982
78.48613570012611	0.06102738892427002
78.53681217486101	0.06684750394238849
78.5439401135503	0.3164422767053594
78.62537288828565	0.0306811152281238
78.64428727393215	0.007726556048190334
78.8793647354225	0.20653943670977173
78.9736921722096	0.12458442415062199
79.02424450709404	0.061058068150834595
79.05500621607366	0.021469507858367
79.182925417276	0.032235928239682424
79.19132139719825	0.3169970924561067
79.28488124813887	0.049191793223119604
79.33260309296855	0.01462439985987986
79.42642785801631	0.08826896634225745
79.43325612269147	0.1731021077248485
79.48006030264138	0.006020709636594069
79.51246267318065	0.01514908194197489
79.52790651773392	0.1602080829838908
79.66083590880311	0.006644376887642263
79.71739437452153	0.23495491722815715
79.72251558839129	0.016284304044850727
79.77501588823218	0.06804425381189524
79.83410346199062	0.0031733882116282267
80.07299478946729	0.0023387852163196275
80.11573653819332	0.06859824182190676
80.19053057835605	0.13853248784853692
80.19611090318078	0.018673380795058626
80.28664215581942	0.060539471154734216
80.321122913807	0.07857572370062858
80.35418952130912	0.2857780462022802
80.82785074176665	0.0024110516639607653
80.83315794337257	0.1545806170968418
80.89177857473543	0.05114659957788771
81.05330019094055	0.004608767774120114
81.06160053768252	0.009394399272688607
81.20802710423133	0.15068645851650206
81.2494206969878	0.1369361139556329
81.29134834326388	0.05348441389994894
81.2996600644877	0.05168866527359039
81.35081472945203	0.3661934786166157
81.37157053495197	0.06654489713580923
81.42069667657667	0.12403344842904394
81.43638781222461	0.035795594012546374
81.6039721310054	0.005148805849485407
81.77305607393228	0.08321199025119086
81.84261297262336	0.2114151908078007
81.98933285239774	0.22749096763214588
82.009447834406	0.3084117805134677
82.05059214764199	0.006481744916425393
82.07926082663852	0.09244157994102321
82.25849274059108	0.19588545361217735
82.28340055111623	0.04971504282812918
82.29056697074827	0.0910912964086588
82.33564678670066	0.03081097876031416
82.51809435923296	0.3544776679039967
82.59726560183549	0.3105383415020113
82.6333356609872	0.1400398613794905
82.7650968224697	0.03188295362209253
82.78673878712246	0.09672749838463232
82.81759642855226	0.06411626517786712
82.92676431078948	0.06715598314624759
82.9987122433877	0.2036625389821022
83.26607262985696	0.21374081014185897
83.30476733266114	0.06288566973203513
83.43435412910631	0.018029691058090404
83.49478042903434	0.001319711427208493
83.83878000658437	0.32287946632914466
83.85071155146116	0.031607648267320744
83.89537995137496	0.02780705753456856
83.99430885330061	0.03805690978041308
84.0725966633313	0.018137342095295224
84.1409940754712	0.02594299774014408
84.2193008485387	0.021936480832327278
84.50272601015718	0.04971450891431834
84.56660918664664	0.21104718238172748
84.62350916816602	0.07473475997721912
84.63359826153375	0.0037623316315986317
84.65384245019719	0.014408748619100936
84.68877553562703	0.016701730690429507
84.91647470283118	0.14539797967219856
84.92497338416464	0.002884094200299319
85.00458641274767	0.014405369403316645
85.05334309478697	0.030421317288822997
85.08569088734431	0.0668328645321551
85.18187739627328	0.07328900041148394
85.24445315962042	0.04147939554577909
85.37945498297957	0.03446088381676387
85.41614526368029	0.22884672966026443
85.433163916626	0.0605456440206321
85.5458592941027	0.01039077713470201
85.55013016864953	0.09127085262375195
85.5778145185395	0.21830024860607003
85.59304593342209	0.05825660577716144
85.63787746963104	0.0848704195944131
86.00218210037362	0.17261611743727698
86.23641983319777	0.11754565013564362
86.25947069874361	0.016181414626052982
86.29138023154582	0.019750450502004604
86.29235282927625	0.009114492290192667
86.29696750527303	0.02944647525373944
86.32563988798304	0.004064562359853023
86.4086134568309	0.014497977260885345
86.5014520246771	0.02781551970526953
86.62133096406995	0.013189067003430444
86.64314034630789	0.09774667381978171
86.64851947786488	0.04631391492013243
86.76576237968273	0.013170079186667486
86.86754074007581	0.10829790208766459
86.9162310250306	0.1167190701111618
86.9252839953643	0.027794674102419353
87.10786063441151	0.18792097043450884
87.25271331998029	0.03268369302289922
87.3573658850301	0.11997863083720137
87.39400439630812	0.020638750514935418
87.4682245127171	0.11876040766543355
87.50624901065756	0.11517345552252581
87.64475022423137	0.08426236898517074
87.68930323681182	0.10081340851860429
87.85218258134881	0.017298169421146536
88.01922635729426	0.284796220717343
88.11540192508531	0.25619974238316734
88.13232755658439	0.03720067152096616
88.14653821478115	0.1592912049406318
88.24471528289097	0.03448188860727196
88.3177418889922	0.030357095060987868
88.51828538140568	0.22312554456305594
88.5294180967219	0.020124942007954113
88.71906562546936	0.04054720798302614
88.78278604532574	0.13082632234535144
89.08224164884246	0.0015632664875937102
89.12708121694948	0.004631424166255601
89.33684874601921	0.132617042559969
89.34168257680871	0.0796982223900832
89.43342181694855	0.018754737435865233
89.47195247924782	0.14093651888746964
89.61218787011363	0.0012467129557676834
89.6991992181583	0.1469762355055915
89.81946263559584	0.0826915832499377
89.88402262019389	0.01999227884463981
89.90073486829317	0.16578690317498815
89.93492347768375	0.012090826230643588
89.98914544033389	0.03685315318857845
